t, psi, phi, theta
0.0, 0.0, 0.0, 1.1780972450961724
0.00020013342228152102, 0.015086934864871861, 8.59560051001557e-06, 1.1630709182565742
0.00040026684456304204, 0.03042322245201791, -0.000601329534328253, 1.148181324861823
0.000600400266844563, 0.04602822703173493, -0.0018361391921274041, 1.1334492544185397
0.0008005336891260841, 0.06192100005504648, -0.0037019293500008344, 1.1188957193867832
0.0010006671114076052, 0.07812016715351242, -0.0062044313296689985, 1.1045419635605438
0.001200800533689126, 0.09464380394114101, -0.009348901333872308, 1.090409466758967
0.001400933955970647, 0.11150930008033622, -0.013139996019058822, 1.0765199451161094
0.0016010673782521682, 0.12873321127648713, -0.017581633952325783, 1.0628953462179374
0.0018012008005336892, 0.14633109912716355, -0.022676843051844767, 1.049557838303591
0.0020013342228152103, 0.16431735907811176, -0.02842759442590273, 1.036529792727134
0.002201467645096731, 0.18270503713414366, -0.034834623411220796, 1.0238337588701496
0.002401601067378252, 0.20150563644112812, -0.04189723906906571, 1.0114924307091595
0.0026017344896597733, 0.220728915394943, -0.04961312392727815, 0.9995286042797946
0.002801867911941294, 0.24038267953940223, -0.05797812635277416, 0.9879651253470336
0.0030020013342228155, 0.2604725701773283, -0.06698604859189136, 0.97682482669256
0.0032021347565043363, 0.2810018533200047, -0.07662843420811188, 0.9661304545709128
0.003402268178785857, 0.3019712133156531, -0.08689435935367193, 0.9559045840691877
0.0036024016010673785, 0.32337855619478323, -0.09777023300083014, 0.9461695233327563
0.0038025350233488993, 0.34521882840876517, -0.10923961188963512, 0.9369472068919672
0.004002668445630421, 0.367483857170208, -0.12128303647433944, 0.9282590786396134
0.004202801867911941, 0.39016221897688486, -0.13387789451733983, 0.9201259653605174
0.004402935290193462, 0.41323914305992526, -0.14699831913257622, 0.9125679420937403
0.004603068712474984, 0.43669645638852156, -0.16061512796640134, 0.9056041910017304
0.004803202134756504, 0.4605125764410912, -0.1746958097766463, 0.8992528558125793
0.005003335557038025, 0.484662557183011, -0.1892045638962537, 0.8935308942715842
0.005203468979319547, 0.5091181925586217, -0.2041023969313319, 0.888453931364331
0.005403602401601068, 0.5338481803190586, -0.2193472795536665, 0.8840361163322407
0.005603735823882588, 0.5588183472043813, -0.23489436444136233, 0.8802899866704044
0.00580386924616411, 0.5839919344447854, -0.25069626436471537, 0.8772263423565853
0.006004002668445631, 0.6093299403360173, -0.2667033872022499, 0.8748541334942115
0.006204136090727151, 0.6347915143967484, -0.2828643224223538, 0.873180364352346
0.006404269513008673, 0.6603343954644642, -0.2991262714129875, 0.8722100164514234
0.006604402935290194, 0.6859153841701467, -0.3154355121242598, 0.8719459928834273
0.006804536357571714, 0.7114908386817178, -0.3317378869373171, 0.8723890854866848
0.007004669779853236, 0.737017181532504, -0.34797930159861046, 0.8735379658442981
0.007204803202134757, 0.7624514048327348, -0.36410622254003844, 0.875389200373735
0.007404936624416277, 0.7877515612379455, -0.3800661599813707, 0.8779372890595638
0.007605070046697799, 0.8128772287124613, -0.3958081248760692, 0.881174726689242
0.00780520346897932, 0.8377899383294498, -0.41128304896570184, 0.8850920848188288
0.008005336891260841, 0.8624535560035217, -0.4264441588637646, 0.8896781121522996
0.008205470313542362, 0.8868346110405664, -0.4412472970799274, 0.8949198505886257
0.008405603735823882, 0.9109025665781967, -0.45565118508626445, 0.9008027638901785
0.008605737158105404, 0.9346300292402121, -0.4696176257792881, 0.9073108757604627
0.008805870580386925, 0.9579928975090017, -0.483111644874719, 0.9144269140859311
0.009006004002668445, 0.9809704503179062, -0.4961015727730058, 0.9221324581851741
0.009206137424949967, 1.0035453790934643, -0.508559070164893, 0.9304080861024359
0.009406270847231488, 1.0257037678763419, -0.520459102048986, 0.9392335192603879
0.009606404269513008, 1.0474350271901218, -0.5317798658778564, 0.9485877621264286
0.00980653769179453, 1.068731788006677, -0.5425026802334084, 0.9584492349243671
0.01000667111407605, 1.089589762495867, -0.5526118407763494, 0.9687958978174607
0.010206804536357573, 1.1100075782832757, -0.5620944502561467, 0.9796053653802985
0.010406937958639093, 1.1299865927212815, -0.5709402291554843, 0.9908550105502698
0.010607071380920614, 1.1495306932601228, -0.5791413131311506, 1.002522057592325
0.010807204803202136, 1.1686460894416388, -0.5866920428563629, 1.0145836639152441
0.011007338225483656, 1.1873411013807522, -0.5935887512194844, 1.0270169908388878
0.011207471647765177, 1.2056259488944239, -0.5998295521368177, 1.0397992636282176
0.011407605070046699, 1.2235125447232729, -0.6054141345311777, 1.052907821281923
0.01160773849232822, 1.2410142945978315, -0.6103435643437419, 1.0663201566938816
0.01180787191460974, 1.2581459062520957, -0.6146200968068095, 1.080013947898269
0.012008005336891262, 1.2749232088969633, -0.6182470006248424, 1.09396708116858
0.012208138759172782, 1.2913629841443386, -0.6212283951994577, 1.10815766677214
0.012408272181454303, 1.3074828089229389, -0.6235691015945964, 1.122564048189918
0.012608405603735825, 1.3233009105489355, -0.6252745075705642, 1.1371648056013928
0.012808539026017345, 1.3388360338052794, -0.6263504467166525, 1.1519387544103088
0.013008672448298866, 1.3541073196377, -0.6268030914761974, 1.1668649395532793
0.013208805870580388, 1.3691341948864697, -0.6266388596785509, 1.1819226262927305
0.013408939292861908, 1.3839362723341084, -0.6258643340622574, 1.197091288151446
0.013609072715143429, 1.3985332602531895, -0.6244861941853379, 1.2123505926002422
0.01380920613742495, 1.4129448805785036, -0.6225111600648285, 1.2276803850648692
0.014009339559706471, 1.4271907947977651, -0.6199459468618664, 1.2430606717744572
0.014209472981987992, 1.4412905366491997, -0.6167972299245758, 1.2584716019326665
0.014409606404269514, 1.455263450723423, -0.6130716195115145, 1.2738934496569005
0.014609739826551034, 1.46912863612078, -0.6087756445527434, 1.28930659608235
0.014809873248832555, 1.482904894299621, -0.6039157448132414, 1.3046915120335139
0.015010006671114077, 1.4966106803598316, -0.5984982708840221, 1.3200287416038323
0.015210140093395597, 1.510264057042744, -0.5925294914548903, 1.33529888694543
0.015410273515677118, 1.5238826507728316, -0.5860156073491191, 1.3504825946207781
0.01561040693795864, 1.5374836091534063, -0.5789627718420189, 1.3655605437821472
0.015810540360240162, 1.5510835593905246, -0.5713771168084311, 1.3805134364604499
0.016010673782521682, 1.5646985671931706, -0.5632647842651979, 1.3953219902264433
0.016210807204803203, 1.578344095773496, -0.5546319628879073, 1.4099669334751408
0.016410940627084723, 1.5920349646494063, -0.5454849290864011, 1.424429003572611
0.016611074049366244, 1.6057853080331141, -0.5358300922201944, 1.4386889480924228
0.016811207471647764, 1.6196085326734637, -0.525674043522803, 1.4527275293561095
0.017011340893929288, 1.6335172751068634, -0.5150236082830069, 1.4665255324774495
0.01721147431621081, 1.6475233583613922, -0.5038859008015256, 1.480063777093333
0.01741160773849233, 1.6616377482507985, -0.49226838160397224, 1.4933231329438177
0.01761174116077385, 1.6758705094891195, -0.4801789163461022, 1.5062845394399593
0.01781187458305537, 1.6902307619517332, -0.46762583579643097, 1.5189290293294995
0.01801200800533689, 1.7047266375036418, -0.4546179962257549, 1.5312377565369777
0.018212141427618414, 1.719365237909212, -0.44116483947484497, 1.5431920282158307
0.018412274849899934, 1.7341525944275678, -0.4272764519128173, 1.5547733410052784
0.018612408272181455, 1.7490936297821122, -0.4129636214420323, 1.5659634214341407
0.018812541694462975, 1.7641921232686526, -0.39823789165376416, 1.576744270357275
0.019012675116744496, 1.779450679831419, -0.3831116121955413, 1.5870982112484249
0.019212808539026016, 1.7948707039867826, -0.3675979843794035, 1.5970079421065313
0.01941294196130754, 1.8104523795074559, -0.35171110104387143, 1.606456590661901
0.01961307538358906, 1.8261946557921818, -0.3354659796846481, 1.6154277724953054
0.01981320880587058, 1.8420952418343959, -0.3188785878932144, 1.623905651608622
0.0200133422281521, 1.8581506086654138, -0.30196586019139166, 1.631875002911899
0.020213475650433622, 1.87435600108134, -0.284745705425846, 1.63932127602083
0.020413609072715146, 1.8907054593668762, -0.26723700399081174, 1.6462306596929221
0.020613742494996666, 1.907191851603298, -0.24945959428039446, 1.6525901461725423
0.020813875917278186, 1.923806916993005, -0.2314342479328704, 1.6583875946671343
0.021014009339559707, 1.9405413204514812, -0.21318263361630016, 1.6636117931415664
0.021214142761841227, 1.9573847185128663, -0.19472726931400744, 1.668252517597125
0.021414276184122748, 1.9743258363725602, -0.17609146329516415, 1.6723005879980375
0.02161440960640427, 1.9913525556556402, -0.15729924419371732, 1.6757479200230434
0.021814543028685792, 2.0084520122605993, -0.13837528086097323, 1.6785875718534589
0.022014676450967312, 2.025610703392145, -0.11934479289530009, 1.6808137852625777
0.022214809873248833, 2.0428146026729688, -0.10023345297817583, 1.6824220203437636
0.022414943295530353, 2.060049282021056, -0.0810672823507265, 1.6834089833049528
0.022615076717811874, 2.0773000387977585, -0.061872540949265496, 1.683772646863233
0.022815210140093398, 2.094552026629532, -0.04267561380971174, 1.6835122628956198
0.023015343562374918, 2.111790388126613, -0.023502895560459838, 1.682628367122655
0.02321547698465644, 2.129000387753965, -0.004380674763407127, 1.6811227757534086
0.02341561040693796, 2.1461675430836897, 0.01466498012274035, 1.6789985741425044
0.02361574382921948, 2.163277752667363, 0.03360833133867273, 1.6762600976569244
0.023815877251501, 2.180317418893867, 0.052424077341929956, 1.6729129050772142
0.024016010673782524, 2.1972735643168377, 0.07108745170355042, 1.6689637449802357
0.024216144096064044, 2.214133940107168, 0.08957431401842877, 1.66442051565918
0.024416277518345565, 2.2308871254851965, 0.10786123166457424, 1.6592922192297332
0.024616410940627085, 2.2475226172082006, 0.12592555146935333, 1.6535889106468298
0.024816544362908605, 2.2640309084232215, 0.1437454605774868, 1.6473216424130654
0.025016677785190126, 2.280403556434497, 0.16130003605756937, 1.640502405796976
0.02521681120747165, 2.2966332391707267, 0.17856928302307598, 1.63314406939717
0.02541694462975317, 2.3127138003625913, 0.19553416127283496, 1.6252603158876144
0.02561707805203469, 2.3286402836489657, 0.21217660066844513, 1.6168655777615741
0.02581721147431621, 2.344408956015943, 0.22847950565699046, 1.607974972858701
0.02601734489659773, 2.3600173211322617, 0.2444267495129241, 1.5986042404137801
0.026217478318879255, 2.3754641232755214, 0.2600031590107973, 1.5887696783090628
0.026417611741160776, 2.39074934264456, 0.2751944903495786, 1.5784880821475
0.026617745163442296, 2.405874182924574, 0.2899873972298397, 1.5677766866939826
0.026817878585723817, 2.4208410520140657, 0.30436939203832863, 1.5566531101582872
0.027018012008005337, 2.4356535368384336, 0.31832880112251144, 1.5451353017189493
0.027218145430286857, 2.4503163731665407, 0.331854715143298, 1.5332414926136562
0.02741827885256838, 2.4648354113168094, 0.34493693548057414, 1.5209901510505623
0.0276184122748499, 2.479217578591577, 0.3575659176367802, 1.508399941127474
0.027818545697131422, 2.493470839215767, 0.36973271254213, 1.495489685883093
0.028018679119412943, 2.5076041524815764, 0.3814289066145922, 1.4822783345471273
0.028218812541694463, 2.521627429717792, 0.3926465613717272, 1.4687849340044457
0.028418945963975983, 2.535551490613134, 0.40337815333287064, 1.4550286044427196
0.028619079386257507, 2.5493880193300558, 0.4136165148916391, 1.4410285191130545
0.028819212808539028, 2.5631495207505717, 0.423354776782605, 1.4268038880987137
0.029019346230820548, 2.576849277100538, 0.43258631271417347, 1.412373945957742
0.02921947965310207, 2.5905013051045422, 0.44130468669374273, 1.3977579430805802
0.02941961307538359, 2.604120313731084, 0.44950360353236113, 1.3829751405829986
0.02961974649766511, 2.617721662497542, 0.45717686298516136, 1.3680448085371875
0.029819879919946633, 2.6313213202169448, 0.46431831796143946, 1.3529862273289022
0.030020013342228154, 2.644935823983909, 0.4709218372246323, 1.337818691915454
0.030220146764509674, 2.6585822381152955, 0.47698127299765475, 1.3225615187473054
0.030420280186791195, 2.6722781126821675, 0.48249043389287155, 1.3072340551043629
0.030620413609072715, 2.6860414411897335, 0.48744306359920686, 1.2918556905766
0.030820547031354235, 2.6998906169095735, 0.49183282577095133, 1.2764458704564945
0.03102068045363576, 2.713844387251855, 0.4956532956051301, 1.2610241106874647
0.03122081387591728, 2.7279218055488785, 0.4988979586071769, 1.2456100141111426
0.0314209472981988, 2.742142179531303, 0.5015602170893261, 1.2302232876756933
0.031621080720480324, 2.7565250157266576, 0.5036334049804086, 1.214883760257545
0.031821214142761844, 2.7710899589453972, 0.5051108115669872, 1.1996114007092438
0.032021347565043365, 2.7858567260411102, 0.5059857147925418, 1.1844263357792688
0.032221480987324885, 2.80084503298084, 0.5062514248143728, 1.1693488673985912
0.032421614409606406, 2.816074514357863, 0.5059013384881587, 1.154399488900461
0.032621747831887926, 2.8315646344286836, 0.5049290054697244, 1.1395988996488413
0.03282188125416945, 2.8473345887916284, 0.5033282065979093, 1.1249680175167864
0.03302201467645097, 2.863403195878958, 0.501093045173734, 1.1105279886108124
0.03322214809873249, 2.8797887775240087, 0.4982180516688955, 1.096300193591526
0.03342228152101401, 2.8965090279962045, 0.49469830227386286, 1.0823062498961438
0.03362241494329553, 2.9135808710768965, 0.4905295515251174, 1.068568009127269
0.033822548365577056, 2.9310203049849792, 0.48570837902506275, 1.05510754883711
0.034022681787858576, 2.9488422352595953, 0.4802323499800092, 1.0419471579104982
0.034222815210140096, 2.967060296073507, 0.47410018892574923, 1.0291093147374204
0.03442294863242162, 2.985686660888448, 0.4673119655828236, 1.0166166573706665
0.03462308205470314, 3.004731843873805, 0.4598692912836944, 1.0044919448913348
0.03482321547698466, 3.0242044940892154, 0.451775523844674, 0.9927580092593861
0.03502334889926618, 3.044111185072029, 0.44303597812458245, 0.9814376970132009
0.0352234823215477, 3.0644562031579214, 0.4336581388338903, 0.9705538003059296
0.03542361574382922, 3.085241338575825, 0.42365187145383876, 0.960128976931367
0.03562374916611074, 3.106465684067655, 0.41302962642386604, 0.9501856592009537
0.03582388258839226, 3.128125446451814, 0.4018066310948193, 0.9407459517873811
0.03602401601067378, 3.150213777132376, 0.3900010633696461, 0.9318315189478594
0.03622414943295531, 3.1727206280022906, 0.37763420051345825, 0.9234634618771855
0.03642428285523683, 3.1956326394443177, 0.36473053636561586, 0.915662187309703
0.03662441627751835, 3.2189330671431278, 0.35131786018241595, 0.9084472688787336
0.03682454969979987, 3.2426017541360905, 0.33742729063004384, 0.9018373031369789
0.03702468312208139, 3.2666151539090467, 0.3230932590733969, 0.8958497625231499
0.03722481654436291, 3.290946409363204, 0.3083534372908165, 0.8905008479073426
0.03742494996664443, 3.3155654911385044, 0.29324860608941083, 0.8858053436374115
0.03762508338892595, 3.3404393971021045, 0.2778224629758033, 0.8817764782177362
0.03782521681120747, 3.365532412851928, 0.2621213689988738, 0.8784257938590028
0.03802535023348899, 3.3908064309277184, 0.246194037041238, 0.8757630281254418
0.03822548365577051, 3.4162213241748485, 0.2300911660856888, 0.8737960107627258
0.03842561707805203, 3.441735366497782, 0.21386502819309217, 0.8725305785113037
0.03862575050033356, 3.467305692208727, 0.19756901696113885, 0.8719705103009597
0.03882588392261508, 3.492888783458506, 0.18125716795305413, 0.8721174846965801
0.0390260173448966, 3.5184409739683993, 0.16498366285161664, 0.8729710608462028
0.03922615076717812, 3.5439189564233207, 0.14880232996985568, 0.8745286834914324
0.03942628418945964, 3.5692802809629627, 0.13276615363066913, 0.8767857118993682
0.03962641761174116, 3.594483832293814, 0.11692680489839978, 0.8797354718544352
0.03982655103402268, 3.619490274182671, 0.10133420486408505, 0.883369329194892
0.0400266844563042, 3.6442624514699506, 0.0860361303245932, 0.8876767827923373
0.04022681787858572, 3.668765741622289, 0.07107786981052816, 0.8926455743932526
0.040426951300867243, 3.692968349965712, 0.05650193579423751, 0.898261812385749
0.040627084723148764, 3.7168415449816563, 0.0423478366662149, 0.9045101063324072
0.04082721814543029, 3.740359832272725, 0.028651909841141843, 0.9113737090223073
0.04102735156771181, 3.7635010678918004, 0.015447215265240417, 0.918834662834581
0.04122748498999333, 3.7862465135780923, 0.002763486743456258, 0.9268739473578061
0.04142761841227485, 3.808580837985626, -0.009372863040549722, 0.9354716254549291
0.04162775183455637, 3.8304920691819544, -0.020938689134942783, 0.9446069852798977
0.04182788525683789, 3.851971504524287, -0.03191401871797269, 0.9542586761165016
0.042028018679119414, 3.8730135844981355, -0.04228191992396745, 0.9644048362996129
0.042228152101400934, 3.8936157372610825, -0.05202834189993602, 0.9750232118737443
0.042428285523682455, 3.9137782005159854, -0.06114193278322877, 0.9860912650264188
0.042628418945963975, 3.933503826996432, -0.06961384195552837, 0.9975862716907096
0.042828552368245495, 3.952797879337601, -0.07743751242563378, 1.00948540803269
0.043028685790527016, 3.9716678194813055, -0.08460846857648376, 1.0217658258192828
0.04322881921280854, 3.990123097073533, -0.09112410382923582, 1.034404716897172
0.043428952635090064, 4.008174940597911, -0.096983472070706, 1.047379367203813
0.043629086057371584, 4.02583615428319, -0.1021870859939574, 1.0606672008790015
0.043829219479653105, 4.043120923152867, -0.10673672484112892, 1.074245815153356
0.044029352901934625, 4.060044627968766, -0.11063525343094521, 1.0880930067627894
0.044229486324216145, 4.076623671269236, -0.11388645381220444, 1.1021867906805325
0.044429619746497666, 4.092875315222532, -0.11649487041466723, 1.1165054119755677
0.044629753168779186, 4.108817531608205, -0.11846566917138068, 1.1310273516033666
0.04482988659106071, 4.124468863901815, -0.11980451075933725, 1.145731326916211
0.04503002001334223, 4.139848301166625, -0.12051743784382973, 1.160596287650226
0.04523015343562375, 4.154975163243966, -0.12061077600969337, 1.1756014081081745
0.045430286857905275, 4.169868996575038, -0.12009104791274033, 1.1907260762141025
0.045630420280186795, 4.184549479873707, -0.11896490007969016, 1.2059498800705726
0.045830553702468316, 4.199036338795697, -0.11723904171748634, 1.2212525926034743
0.046030687124749836, 4.21334926869521, -0.11492019485027337, 1.2366141548464384
0.04623082054703136, 4.227507864610719, -0.11201505512101573, 1.2520146583121876
0.04643095396931288, 4.241531557487878, -0.10853026253443623, 1.2674343269919686
0.0466310873915944, 4.255439555817974, -0.10447238150818194, 1.2828534993465601
0.04683122081387592, 4.269250791828328, -0.09984788959026715, 1.298252610695697
0.04703135423615744, 4.2829838714235935, -0.09466317424294891, 1.313612176368369
0.04723148765843896, 4.296657027130788, -0.08892453712956015, 1.3289127759517856
0.04743162108072048, 4.3102880733607405, -0.0826382053768027, 1.3441350389554572
0.047631754503002, 4.323894363363232, -0.07581034931841775, 1.3592596321884645
0.04783188792528353, 4.337492747310899, -0.06844710625077284, 1.3742672491527874
0.04803202134756505, 4.3510995310696705, -0.06055460977554938, 1.389138601641188
0.04823215476984657, 4.364730435189109, -0.05213902428033038, 1.4038544139108253
0.04843228819212809, 4.378400553818856, -0.04320658415536997, 1.4183954196028565
0.04863242161440961, 4.39212431329159, -0.033763637326668774, 1.432742361657999
0.04883255503669113, 4.4059154302047006, -0.023816692680519374, 1.4468759954479866
0.04903268845897265, 4.419786868918705, -0.01337247093739603, 1.4607770953290757
