t, psi, phi, theta
0.0, 0.0, 0.0, 0.7853981633974483
0.0001000250062515629, 0.007551812228772058, 0.0009972989197788262, 0.7778613241642287
0.0002000500125031258, 0.015247048660576806, 0.0017866489003060847, 0.7703360408250273
0.0003000750187546887, 0.02309110672698369, 0.0023636481058753717, 0.7628250838133658
0.0004001000250062516, 0.031089497788214803, 0.0027237904552468374, 0.7553312818118021
0.0005001250312578145, 0.039247845083763166, 0.0028624671291577098, 0.7478575242683517
0.0006001500375093774, 0.04757188099211571, 0.002774968797139806, 0.7404067639529647
0.0007001750437609403, 0.056067443565336585, 0.002456488587994836, 0.7329820195510098
0.0008002000500125032, 0.0647404722551541, 0.0019021258877149653, 0.7255863782799213
0.000900225056264066, 0.07359700273393209, 0.0011068910615572875, 0.71822299852873
0.001000250062515629, 0.08264316071750273, 6.571119273342644e-05, 0.710895112496363
0.001100275068767192, 0.09188515467551198, -0.001226563045469673, 0.7036060288165823
0.0012003000750187547, 0.10132926733052217, -0.0027751492896952623, 0.6963591351529907
0.0013003250812703177, 0.11098184582768446, -0.004585324040215251, 0.6891579007441059
0.0014003500875218807, 0.12084929045071738, -0.006662411743996844, 0.682005878876101
0.0015003750937734434, 0.1309380417553013, -0.009011772278529038, 0.6749067092580213
0.0016004001000250064, 0.14125456598647812, -0.011638786703370388, 0.6678641202712731
0.0017004251062765693, 0.15180533860656742, -0.014548841100228027, 0.6608819310516758
0.001800450112528132, 0.16259682587718774, -0.01774730845818088, 0.6539640534072642
0.001900475118779695, 0.17363546436849595, -0.021239528486246256, 0.6471144934799316
0.002000500125031258, 0.18492763808034213, -0.025030784997675738, 0.6403373531425639
0.0021005251312828208, 0.1964796532024755, -0.02912628092898704, 0.6336368310767548
0.002200550137534384, 0.20829771033968827, -0.033531110810110204, 0.6270172234812529
0.0023005751437859467, 0.22038787408400684, -0.03825023056816819, 0.620482924356936
0.0024006001500375095, 0.23275603983048782, -0.0432884245618605, 0.6140384253101487
0.0025006251562890726, 0.2454078977523084, -0.0486502697625474, 0.6076883148124193
0.0026006501625406354, 0.25834889387525223, -0.054340097022542194, 0.6014372768510152
0.002700675168792198, 0.27158418822198327, -0.06036194940140869, 0.5952900889015972
0.0028007001750437613, 0.2851186100332386, -0.06671953755779493, 0.5892516191515698
0.002900725181295324, 0.29895661011675984, -0.07341619225802097, 0.5833268229007459
0.003000750187546887, 0.31310221042583847, -0.08045481410368902, 0.5775207380648378
0.00310077519379845, 0.32755895102803906, -0.08783782063927124, 0.5718384797072562
0.0032008002000500128, 0.3423298346910834, -0.09556709106704271, 0.5662852335259638
0.0033008252063015755, 0.3574172693868621, -0.10364390887070742, 0.5608662482249201
0.0034008502125531387, 0.37282300909564703, -0.112068902730169, 0.5555868267042048
0.0035008752188047014, 0.38854809338000135, -0.12084198619731347, 0.5504523160094361
0.003600900225056264, 0.4045927862903989, -0.12996229669518486, 0.5454680959898568
0.0037009252313078274, 0.42095651526050093, -0.13942813449886307, 0.5406395666255943
0.00380095023755939, 0.4376378107472036, -0.14923690245351728, 0.5359721339983213
0.003900975243810953, 0.454634247466273, -0.15938504728080272, 0.5314711948959069
0.004001000250062516, 0.4719423881653816, -0.1698680034157663, 0.5271421200607119
0.004101025256314079, 0.48955773095895916, -0.1806801403990149, 0.5229902361128975
0.0042010502625656415, 0.5074746613193138, -0.19181471491894397, 0.5190208062043066
0.004301075268817204, 0.5256864098715487, -0.20326382865188536, 0.5152390094848874
0.004401100275068768, 0.544185017171278, -0.21501839307950885, 0.5116499194918473
0.004501125281320331, 0.5629613066495073, -0.22706810246816872, 0.5082584816012062
0.004601150287571893, 0.5820048668840249, -0.23940141616986507, 0.5050694897114894
0.004701175293823456, 0.6013040442975899, -0.2520055513454225, 0.5020875623591479
0.004801200300075019, 0.6208459472872844, -0.2648664871145679, 0.4993171184939838
0.004901225306326582, 0.6406164626549916, -0.2779689810031816, 0.49676235316938216
0.005001250312578145, 0.6606002850359262, -0.2912965983849543, 0.49442721342541607
0.005101275318829708, 0.6807809598119786, -0.3048317554045177, 0.49231537466182296
0.005201300325081271, 0.7011409397527694, -0.31855577562524273, 0.4904302178113868
0.0053013253313328335, 0.7216616553550586, -0.33244896037265476, 0.4887748076314504
0.005401350337584396, 0.7423235985577615, -0.3464906724510079, 0.4873518724313286
0.005501375343835959, 0.7631064192041882, -0.3606594326049325, 0.48616378554570683
0.005601400350087523, 0.7839890333155757, -0.37493302779051746, 0.48521254884836884
0.005701425356339085, 0.804949741941748, -0.3892886300219519, 0.48449977857678894
0.005801450362590648, 0.8259663590774317, -0.4037029242825425, 0.48402669370656026
0.005901475368842211, 0.8470163468877276, -0.4181522437438955, 0.4837941070759614
0.006001500375093774, 0.8680769562839372, -0.4326127103347483, 0.4838024194161649
0.006101525381345336, 0.8891253707402352, -0.4470603785502301, 0.48405161639292976
0.0062015503875969, 0.9101388511493478, -0.461471380299994, 0.48454126871259656
0.006301575393848463, 0.931094879485621, -0.47582206856389136, 0.4852705352904892
0.0064016004001000255, 0.9519712990780296, -0.49008915765802363, 0.48623816942517184
0.006501625406351588, 0.9727464493922015, -0.5042498580105391, 0.4874425278691634
0.006601650412603151, 0.9933992933750536, -0.5182820035010463, 0.4888815826373458
0.006701675418854715, 1.0139095356211831, -0.5321641696230838, 0.4905529353498835
0.006801700425106277, 1.0342577298677655, -0.5458757809766858, 0.49245383386826924
0.00690172543135784, 1.0544253746038381, -0.5593972068772102, 0.4945811909520635
0.007001750437609403, 1.074394995879092, -0.5727098441658467, 0.49693160464063574
0.007101775443860966, 1.0941502167050698, -0.5857961866149972, 0.4995013800490391
0.007201800450112528, 1.1136758127467679, -0.598639880626821, 0.5022865522600065
0.007301825456364092, 1.1329577542948435, -0.6112257672154475, 0.505282909994619
0.007401850462615655, 1.151983234779132, -0.62353991053386, 0.5084860197518528
0.0075018754688672175, 1.1707406863258654, -0.6355696134481514, 0.5118912501211526
0.00760190047511878, 1.189219783068673, -0.647303420869534, 0.5154937959914404
0.007701925481370343, 1.2074114330938468, -0.6587311117249012, 0.5192887024034979
0.007801950487621906, 1.2253077600320768, -0.6698436805784622, 0.5232708878193674
0.007901975493873468, 1.2429020754021758, -0.680633310010282, 0.5274351666112155
0.008002000500125032, 1.2601888428689174, -0.6910933349141779, 0.5317762706019971
0.008102025506376594, 1.2771636355999123, -0.701218199900222, 0.5362888695203115
0.008202050512628158, 1.2938230878991406, -0.7110034109798012, 0.5409675902612586
0.008302075518879721, 1.3101648422616474, -0.7204454826780705, 0.545807034873211
0.008402100525131283, 1.3261874929395168, -0.7295418816642607, 0.5508017972166825
0.008502125531382847, 1.3418905268816226, -0.7382909677444963, 0.555946478230587
0.008602150537634409, 1.3572742631896386, -0.7466919333942863, 0.5612356999264858
0.008702175543885972, 1.3723397927252834, -0.7547447435120902, 0.5666641179448662
0.008802200550137536, 1.3870889165703708, -0.7624500739337854, 0.5722264328074209
0.008902225556389098, 1.4015240856679334, -0.7698092511762156, 0.5779173998802382
0.009002250562640661, 1.4156483417290875, -0.7768241934551985, 0.583731838100121
0.009102275568892223, 1.4294652598689024, -0.7834973534416169, 0.5896646375239372
0.009202300575143787, 1.4429788933475411, -0.789831663132245, 0.5957107657672921
0.009302325581395349, 1.456193720712286, -0.7958304811313036, 0.6018652734032377
0.009402350587646912, 1.4691145955625884, -0.8014975425652674, 0.6081232983944042
0.009502375593898476, 1.4817466990944166, -0.8068369117875912, 0.6144800696331103
0.009602400600150038, 1.494095495521977, -0.8118529379718252, 0.6209309096639007
0.009702425606401601, 1.5061666904243993, -0.8165502136411049, 0.6274712366617796
0.009802450612653163, 1.51796619202173, -0.8209335361387625, 0.6340965657373839
0.009902475618904727, 1.5295000753483323, -0.8250078720085634, 0.6408025096376256
0.01000250062515629, 1.5407745492619347, -0.8287783242232138, 0.6475847789071146
0.010102525631407852, 1.5517959262025078, -0.8322501021757304, 0.6544391815720848
0.010202550637659416, 1.5625705945963941, -0.8354284943295048, 0.661361622404722
0.010302575643910978, 1.573104993786948, -0.8383188434087341, 0.66834810182182
0.010402600650162542, 1.5834055913628515, -0.8409265240007918, 0.6753947144676871
0.010502625656414105, 1.5934788627486725, -0.8432569224355195, 0.6824976475272292
0.010602650662665667, 1.6033312729185742, -0.8453154188027572, 0.6896531788112467
0.01070267566891723, 1.6129692600929146, -0.8471073709682652, 0.696857674652189
0.010802700675168793, 1.6223992212783778, -0.8486381004490777, 0.7041075876450105
0.010902725681420356, 1.6316274995147788, -0.8499128800118422, 0.7113994542643406
0.011002750687671918, 1.6406603726955447, -0.8509369228615447, 0.7187298923859511
0.011102775693923482, 1.6495040438337083, -0.8517153732928628, 0.7260955987375004
0.011202800700175045, 1.6581646326508623, -0.8522532986819875, 0.7334933463007338
0.011302825706426607, 1.6666481683726395, -0.8525556827028907, 0.7409199816847395
0.01140285071267817, 1.674960583620636, -0.8526274196582919, 0.7483724224875234
0.011502875718929733, 1.6831077092924078, -0.8524733097936174, 0.7558476547633018
0.011602900725181296, 1.6910952702828568, -0.852098055557936, 0.7633427299804423
0.01170292573143286, 1.6989288824033666, -0.851506259021528, 0.7708547630857169
0.011802950737684422, 1.7066140490608581, -0.8507024189072783, 0.7783809294995582
0.011902975743935985, 1.7141561597104087, -0.8496909297520727, 0.7859184627253211
0.012003000750187547, 1.7215604882439908, -0.8484760807966489, 0.7934646518939861
0.012103025756439111, 1.7288321920262621, -0.847062055596831, 0.8010168393676057
0.012203050762690673, 1.735976311378095, -0.8454529321027726, 0.8085724184061611
0.012303075768942236, 1.7429977694539347, -0.843652683152837, 0.8161288309017047
0.0124031007751938, 1.7499013724631323, -0.8416651773324478, 0.8236835651829032
0.012503125781445362, 1.7566918101898652, -0.8394941801526362, 0.8312341538924122
0.012603150787696926, 1.7633736567705451, -0.8371433555072563, 0.8387781719389074
0.012703175793948487, 1.7699513716915634, -0.8346162673717836, 0.8463132345250695
0.012803200800200051, 1.7764293009739036, -0.8319163817102355, 0.8538369952523654
0.012903225806451615, 1.782811678514517, -0.8290470685600803, 0.861347144303083
0.013003250812703177, 1.7891026275574522, -0.8260116042680743, 0.868841406699737
0.01310327581895474, 1.7953061622705972, -0.8228131738527488, 0.8763175406416809
0.013203300825206302, 1.8014261894064805, -0.8194548734718342, 0.8837733359185201
0.013303325831457866, 1.807466510027962, -0.8159397129752346, 0.8912066123997308
0.01340335083770943, 1.8134308212818344, -0.812270618526279, 0.8986152185997069
0.013503375843960991, 1.8193227182053153, -0.8084504352759004, 0.9059970303173446
0.013603400850212555, 1.8251456955522316, -0.8044819300761239, 0.9133499493491412
0.013703425856464117, 1.8309031496273127, -0.8003677942208169, 0.920671902274724
0.01380345086271568, 1.8365983801185204, -0.7961106462030684, 0.9279608393136399
0.013903475868967242, 1.8422345919186542, -0.7917130344798261, 0.9352147332522001
0.014003500875218806, 1.847814896928717, -0.7871774402355695, 0.9424315784391253
0.01410352588147037, 1.8533423158366007, -0.7825062801378047, 0.9496093898487326
0.014203550887721931, 1.8588197798656725, -0.7777019090780803, 0.9567462022103718
0.014303575893973495, 1.864250132488696, -0.7727666228930334, 0.9638400692028317
0.014403600900225057, 1.8696361311033807, -0.7677026610606849, 0.970889062712424
0.01450362590647662, 1.8749804486665294, -0.7625122093678453, 0.9778912721534688
0.014603650912728184, 1.8802856752844437, -0.757197402545045, 0.984844803849915
0.014703675918979746, 1.8855543197578175, -0.751760326865895, 0.9917477804768318
0.01480370092523131, 1.890788811079887, -0.7462030227082153, 0.9985983405605402
0.014903725931482871, 1.8959914998870644, -0.7405274870746379, 1.0053946380361551
0.015003750937734435, 1.9011646598617409, -0.7347356760707167, 1.0121348418613298
0.015103775943985997, 1.9063104890872835, -0.7288295073388531, 1.0188171356850109
0.01520380095023756, 1.9114311113556346, -0.7228108624465858, 1.0254397175700267
0.015303825956489124, 1.9165285774282013, -0.7166815892279879, 1.0320007997683451
0.015403850962740686, 1.921604866251015, -0.7104435040770933, 1.0384986085478465
0.01550387596899225, 1.9266618861253746, -0.7040983941924078, 1.0449313840694687
0.015603900975243811, 1.9317014758354163, -0.6976480197716726, 1.0512973803135865
0.015703925981495375, 1.9367254057342393, -0.6910941161561484, 1.0575948650544937
0.015803950987746937, 1.941735378790403, -0.6844383959237533, 1.0638221198818554
0.015903975993998502, 1.9467330315967488, -0.6776825509304469, 1.0699774402679936
0.016004001000250064, 1.9517199353436612, -0.67082825429929, 1.076059135679871
0.016104026006501626, 1.956697596758968, -0.6638771623566436, 1.0820655297346213
0.016204051012753188, 1.9616674590168224, -0.6568309165149805, 1.0879949603974655
0.016304076019004753, 1.9666309026179694, -0.6496911451017967, 1.0938457802208412
0.016404101025256315, 1.9715892462438995, -0.6424594651341093, 1.0996163566235475
0.016504126031507877, 1.9765437475874397, -0.635137484038022, 1.1053050722086943
0.016604151037759442, 1.9814956041623975, -0.6277268013128329, 1.1109103251192123
0.016704176044011004, 1.9864459540949193, -0.6202290101391507, 1.116430529429656
0.016804201050262566, 1.9913958768992464, -0.612645698930464, 1.1218641155730014
0.01690422605651413, 1.9963463942405781, -0.6049784528276063, 1.1272095308011094
0.017004251062765693, 2.0012984706877712, -0.5972288551355412, 1.1324652396774846
0.017104276069017255, 2.0062530144586006, -0.5893984887018832, 1.137629724600923
0.017204301075268817, 2.0112108781603024, -0.5814889372365608, 1.1427014863586114
0.017304326081520383, 2.0161728595281074, -0.5735017865720277, 1.1476790447071832
0.017404351087771944, 2.0211397021644437, -0.5654386258634239, 1.1525609389802092
0.017504376094023506, 2.026112096281458, -0.5573010487280975, 1.1573457287205438
0.01760440110027507, 2.031090679449469, -0.5490906543239058, 1.1620319943359216
0.017704426106526634, 2.0360760373538933, -0.5408090483657323, 1.1666183377761274
0.017804451112778195, 2.0410687045631546, -0.5324578440796812, 1.1711033832300426
0.017904476119029757, 2.046069165309989, -0.5240386630944404, 1.1754857778408168
0.018004501125281323, 2.051077854288505, -0.5155531362693417, 1.179764192437361
0.018104526131532885, 2.0560951574692568, -0.5070029044586947, 1.1839373222803367
0.018204551137784446, 2.0611214129344906, -0.49838961921202524, 1.1880038878207495
0.018304576144036012, 2.0661569117356424, -0.4897149434099087, 1.1919626354692388
0.018404601150287574, 2.0712018987750285, -0.48098055183516203, 1.1958123383741017
0.018504626156539136, 2.076256573713563, -0.4721881316792362, 1.199551797206069
0.018604651162790697, 2.0813210919062084, -0.46333938298373695, 1.2031798409478065
0.018704676169042263, 2.086395565366728, -0.4544360190170984, 1.2066953276861008
0.018804701175293825, 2.0914800637631705, -0.445479766586536, 1.210097145404655
0.018904726181545387, 2.096574615445356, -0.43647236628551495, 1.2133842127754095
0.019004751187796952, 2.101679208505502, -0.4274155726770894, 1.216555479946284
0.019104776194048514, 2.1067937918729385, -0.41831115441359196, 1.2196099293232296
0.019204801200300076, 2.1119182764437068, -0.4091608942932838, 1.222546576344476
0.01930482620655164, 2.117052536245682, -0.39996658925470996, 1.2253644702448612
0.019404851212803203, 2.1221964096396544, -0.3907300503096491, 1.2280626948081423
0.019504876219054765, 2.127349700556652, -0.3814531024156896, 1.2306403691051977
0.019604901225306327, 2.1325121797715876, -0.37213758428961746, 1.233096648216052
0.019704926231557892, 2.137683586213152, -0.362785348162948, 1.2354307239336852
0.019804951237809454, 2.1428636283096747, -0.3533982594810934, 1.2376418254476238
0.019904976244061016, 2.1480519853705053, -0.34397819654780953, 1.239729220005347
0.02000500125031258, 2.1532483090022723, -0.3345270501167217, 1.2416922135495954
0.020105026256564143, 2.158452224559217, -0.3250467229318849, 1.2435301513297286
0.020205051262815705, 2.1636633326266077, -0.3155391292194856, 1.2452424184853284
0.020305076269067267, 2.1688812105360777, -0.3060061941329429, 1.2468284406003323
0.020405101275318832, 2.1741054139115583, -0.2964498531538131, 1.2482876842260364
0.020505126281570394, 2.179335478244327, -0.28687205145104366, 1.2496196573714125
0.020605151287821956, 2.184570920495522, -0.2772747432012582, 1.2508239099592542
0.02070517629407352, 2.189811240724349, -0.2676598908728848, 1.2519000342467792
0.020805201300325083, 2.195055923740054, -0.2580294644770595, 1.252847665209398
0.020905226306576645, 2.200304440775612, -0.24838544078835464, 1.2536664808864888
0.02100525131282821, 2.2055562511809716, -0.23872980253848144, 1.2543562026881037
0.021105276319079772, 2.210810804133583, -0.22906453758621464, 1.2549165956616741
0.021205301325331334, 2.216067540363852, -0.21939163806686993, 1.2553474687178834
0.021305326331582896, 2.2213258938930704, -0.2097130995247373, 1.2556486748150066
0.02140535133783446, 2.2265852937813175, -0.20003092003193523, 1.2558201111011527
0.021505376344086023, 2.2318451658827625, -0.19034709929719956, 1.2558617190139594
0.021605401350337585, 2.2371049346057728, -0.18066363776815744, 1.255773484337431
0.02170542635658915, 2.2423640246751817, -0.1709825357306605, 1.255555437215748
0.021805451362840712, 2.247621862894089, -0.1613057924087616, 1.2552076521239945
0.021905476369092274, 2.252877879902542, -0.15163540506891843, 1.254730247795908
0.022005501375343836, 2.2581315119304772, -0.14197336813198988, 1.2541233871088633
0.0221055263815954, 2.2633822025423367, -0.13232167229656486, 1.2533872769264618
0.022205551387846963, 2.2686294043708015, -0.12268230367712053, 1.252522167899202
0.022305576394098525, 2.2738725808371636, -0.11305724296045457, 1.2515283542238622
0.02240560140035009, 2.279111207855917, -0.10344846458377001, 1.2504061733623317
0.022505626406601652, 2.284344775521229, -0.09385793593771419, 1.2491560057207625
0.022605651412853214, 2.289572789773081, -0.08428761659758602, 1.2477782742900234
0.02270567641910478, 2.2947947740409322, -0.07473945758582648, 1.2462734442485666
0.02280570142535634, 2.300010270862916, -0.06521540066879963, 1.2446420225289123
0.022905726431607903, 2.3052188434786847, -0.055717377690755375, 1.2428845573490686
0.023005751437859465, 2.310420077394188, -0.0462473099477391, 1.2410016377103017
0.02310577644411103, 2.3156135819167782, -0.036807107604082304, 1.2389938928627717
0.023205801450362593, 2.3207989916592315, -0.02739866915396966, 1.2368619917406274
0.023305826456614154, 2.3259759680114054, -0.018023880930434555, 1.2346066423682311
0.02340585146286572, 2.3311442005784393, -0.008684616663987286, 1.2322285912392745
0.02350587646911728, 2.336303408584575, 0.0006172629070711187, 1.2297286226706
0.023605901475368844, 2.3414533422418438, 0.009879910372750362, 1.2271075581326043
0.023705926481620405, 2.346593784083055, 0.019101491932143944, 1.2243662555581627
0.02380595148787197, 2.3517245502586928, 0.02828018761728273, 1.2215056086320413
0.023905976494123533, 2.356845491797523, 0.0374141914586381, 1.2185265460628303
0.024006001500375095, 2.361956495830878, 0.04650171159099284, 1.2154300308394328
0.02410602650662666, 2.3670574867807845, 0.0555409702985512, 1.2122170594741992
0.024206051512878222, 2.372148427512268, 0.0645302039983075, 1.2088886612347916
