t, psi, phi, theta
0.0, 0.0, 0.0, 0.7853981633974483
0.0004008016032064128, 0.031120029918016975, 0.002753920401202844, 0.7552948471189264
0.0008016032064128256, 0.06480300271208567, 0.001958971532829226, 0.7255160620977482
0.0012024048096192384, 0.10142564290906374, -0.002695139356043362, 0.6962585282605362
0.0016032064128256513, 0.1413869952057822, -0.011539284352611048, 0.6677378605644837
0.002004008016032064, 0.18509864578100862, -0.02491554397839698, 0.6401910764114797
0.002404809619238477, 0.23296838912316242, -0.043161213587237346, 0.6138786228165327
0.0028056112224448897, 0.28537518980998555, -0.06658404314072461, 0.5890853600735914
0.0032064128256513026, 0.3426335229334419, -0.09542680077423595, 0.5661197105916643
0.0036072144288577155, 0.40494631070033554, -0.12982038423161082, 0.5453099694561151
0.004008016032064128, 0.47234822065744897, -0.1697272517950946, 0.5269966804121367
0.004408817635270541, 0.5446453458762927, -0.2148811987181723, 0.5115201688413882
0.004809619238476954, 0.6213627573407385, -0.2647349745302033, 0.49920297247458595
0.0052104208416833666, 0.7017161939402319, -0.31843201129660575, 0.4903281097007187
0.0056112224448897794, 0.7846248839098974, -0.37481926119326914, 0.4851157048800264
0.006012024048096192, 0.8687758722121693, -0.4325115226604721, 0.4837019137940558
0.006412825651302605, 0.9527359992509898, -0.4900034059394327, 0.4861245875058687
0.006813627254509018, 1.0350908891899315, -0.5458083024390227, 0.4923191078487578
0.007214428857715431, 1.1145796160210582, -0.5985930327394927, 0.5021254497479223
0.007615230460921844, 1.1901954769322096, -0.6472786093614957, 0.5153046959656746
0.008016032064128256, 1.261236432760236, -0.6910906800730741, 0.5315611521245684
0.008416833667334669, 1.3273056624597508, -0.729560103880614, 0.5505656229263636
0.008817635270541082, 1.3882751637675281, -0.7624865965447696, 0.5719762239779481
0.009218436873747494, 1.4442298068586752, -0.7898828569412326, 0.5954546393128659
0.009619238476953907, 1.4954070856715531, -0.8119144237216911, 0.6206772507835203
0.01002004008016032, 1.5421425755246807, -0.8288452761648535, 0.6473416225708964
0.010420841683366733, 1.584825837362339, -0.8409939253686248, 0.6751693365811994
0.010821643286573146, 1.6238677004900688, -0.8487009339359282, 0.7039062703234531
0.011222444889779559, 1.659677725753703, -0.8523066727221187, 0.7333212710696674
0.011623246492985972, 1.6926498044459395, -0.8521372766537587, 0.7632039562262544
0.012024048096192385, 1.7231537711996612, -0.8484966844495245, 0.7933621476169922
0.012424849699398798, 1.751531196371751, -0.8416629338326529, 0.8236192653050457
0.01282565130260521, 1.7780939232920538, -0.8318872828177291, 0.8538118731669655
0.013226452905811623, 1.8031243010610745, -0.8193951115331398, 0.8837874783769628
0.013627254509018036, 1.8268763815102678, -0.8043878750371534, 0.9134026298006687
0.014028056112224449, 1.8495775928848126, -0.7870456187973308, 0.9425213265720493
0.014428857715430862, 1.8714305785535952, -0.7675297407954271, 0.971013729654081
0.014829659318637275, 1.892615012045601, -0.7459858029045813, 0.998755160157349
0.015230460921843688, 1.9132892833756716, -0.7225462726966007, 1.025625364649004
0.0156312625250501, 1.933592007470537, -0.6973331267565857, 1.051508026993412
0.01603206412825651, 1.953643342267763, -0.6704602768024277, 1.076290506766052
0.016432865731462926, 1.9735461279769746, -0.6420357969518836, 1.09986378496194
0.016833667334669337, 1.9933868743264647, -0.6121639390303808, 1.1221225979969014
0.017234468937875752, 2.0132366321457, -0.5809469262025087, 1.142965740580521
0.017635270541082163, 2.033151791062188, -0.548486515827914, 1.162296516831818
0.018036072144288578, 2.0531748473869516, -0.5148853220212254, 1.1800233170718326
0.01843687374749499, 2.073335185912316, -0.48024788820324305, 1.1960602952409958
0.018837675350701404, 2.0936499165589075, -0.44468150087748876, 1.210328119131354
0.019238476953907815, 2.1141248016860748, -0.4082967385546141, 1.2227547629481443
0.01963927855711423, 2.1347553025472945, -0.37120775448171756, 1.2332763095231343
0.02004008016032064, 2.155527764083627, -0.3335322986152754, 1.241837728205128
0.020440881763527055, 2.176420746452422, -0.29539149280057597, 1.2483935944280797
0.020841683366733466, 2.197406500050106, -0.2569093827973157, 1.2529087184975571
0.02124248496993988, 2.218452569161398, -0.2182123007993413, 1.255358654405025
0.021643286573146292, 2.2395234987227797, -0.1794280814763735, 1.255730064474261
0.022044088176352707, 2.260582609999291, -0.14068518234153926, 1.2540209221811474
0.022444889779559118, 2.28159380508931, -0.10211176456066114, 1.2502405432094736
0.022845691382765532, 2.3025233576952666, -0.06383479257711835, 1.244409443213544
0.023246492985971944, 2.323341648776465, -0.02597920984559617, 1.2365590292744892
0.023647294589178358, 2.3440248104251107, 0.011332756304954911, 1.2267311400662053
0.02404809619238477, 2.364556249080111, 0.04798211464404875, 1.2149774567556968
0.024448897795591184, 2.384928029247939, 0.0838534177290173, 1.2013588122383392
0.024849699398797595, 2.4051421102901362, 0.11883483008982963, 1.1859444302028594
0.02525050100200401, 2.425211440577242, 0.15281793958706585, 1.16881112766721
0.02565130260521042, 2.4451609244926478, 0.18569730363746437, 1.1500425151323115
0.026052104208416832, 2.465028287659006, 0.21736972945544664, 1.129728227617611
0.026452905811623247, 2.4848648738286787, 0.24773329293996135, 1.1079632179232624
0.026853707414829658, 2.504736412810297, 0.27668610423520856, 1.0848471409132476
0.027254509018036072, 2.5247238024341536, 0.30412482950845077, 1.0604838548415456
0.027655310621242483, 2.5449239487943025, 0.3299429786143539, 1.0349810631239138
0.028056112224448898, 2.565450707691299, 0.3540289678505149, 1.0084501177987495
0.02845691382765531, 2.586435965970443, 0.3762639670842803, 0.9810060044389646
0.028857715430861724, 2.608030893537155, 0.3965195426965435, 0.9527675275778904
0.029258517034068135, 2.630407383824555, 0.4146551141709307, 0.9238577157625241
0.02965931863727455, 2.6537596800366297, 0.43051525571311877, 0.8944044659329271
0.03006012024048096, 2.6783061529148084, 0.44392689916208683, 0.8645414474809103
0.030460921843687375, 2.704291147601166, 0.4546965364579867, 0.8344092862263515
0.030861723446893786, 2.731986744607921, 0.4626075870527987, 0.8041570462684616
0.0312625250501002, 2.76169417242625, 0.4674181985118893, 0.7739440209764333
0.031663326653306616, 2.7937444540424083, 0.46885990007328526, 0.7439418298480106
0.03206412825651302, 2.8284976515831106, 0.46663774398485575, 0.7143367904743668
0.03246492985971944, 2.8663397819208845, 0.4604328586293517, 0.6853324871176673
0.03286573146292585, 2.907676111262422, 0.44990870063853067, 0.6571523803057244
0.03326653306613227, 2.9529191334471063, 0.43472269547437153, 0.6300421848708596
0.033667334669338675, 3.002469186710572, 0.4145453052624095, 0.6042715792389658
0.03406813627254509, 3.056685572830917, 0.38908865326040587, 0.580134598379578
0.034468937875751504, 3.1158465586996376, 0.35814631823922055, 0.5579478324349878
0.03486973947895792, 3.180098253152982, 0.3216442995126773, 0.5380453706898036
0.035270541082164326, 3.249395540908765, 0.2796999647735347, 0.5207694226882544
0.03567134268537074, 3.3234430945124185, 0.23268095436860725, 0.5064558917508608
0.036072144288577156, 3.401650005941956, 0.18125049542791752, 0.49541503381758634
0.03647294589178357, 3.4831152627379005, 0.12638189640866548, 0.4879087171683347
0.03687374749498998, 3.56665953151705, 0.0693267546186741, 0.48412740127796067
0.03727454909819639, 3.6509089651347333, 0.011531155505728367, 0.48417111649816597
0.03767535070140281, 3.734420670328277, -0.04548977885577003, 0.4880386901851194
0.03807615230460922, 3.815823950457332, -0.10029311309040226, 0.4956278761564607
0.03847695390781563, 3.8939450655511565, -0.151632842595341, 0.5067463545421479
0.038877755511022044, 3.9678899040363262, -0.19854255910755447, 0.5211308934170344
0.03927855711422846, 4.037074596387868, -0.24036607372350402, 0.5384704084979962
0.039679358717434866, 4.10121009662879, -0.2767420282441489, 0.5584286548732449
0.04008016032064128, 4.160256319014643, -0.3075580867453028, 0.5806634671313811
0.040480961923847696, 4.2143630176244615, -0.3328918996746928, 0.604841068125502
0.04088176352705411, 4.263810832769468, -0.3529522693333118, 0.630645339244226
0.04128256513026052, 4.308960401025214, -0.36802841902258343, 0.6577827900096831
0.04168336673346693, 4.350212618668826, -0.3784504616480886, 0.685984298201857
0.04208416833667335, 4.387979998593672, -0.3845610142876433, 0.7150046780428357
0.04248496993987976, 4.422667478985654, -0.3866963236881739, 0.7446209493626683
0.04288577154308617, 4.454660543849469, -0.38517476949641144, 0.7746299501298279
0.043286573146292584, 4.484318617763147, -0.38029071401249764, 0.80484572529592
0.043687374749499, 4.511972047211324, -0.3723120166326625, 0.8350969613191235
0.04408817635270541, 4.537921386246553, -0.36147993545135904, 0.8652246198171217
0.04448897795591182, 4.562438066501559, -0.34801049917909643, 0.8950798474671686
0.044889779559118236, 4.585765821682849, -0.3320967203899375, 0.9245221920863038
0.04529058116232465, 4.6081224529304325, -0.3139112343798508, 0.9534181277218825
0.045691382765531065, 4.629701675500683, -0.2936090982157196, 0.9816398772602504
0.04609218436873747, 4.650674893779671, -0.2713305864711241, 1.0090645145061345
0.04649298597194389, 4.671192823533411, -0.24720388658455958, 1.0355733254743744
0.0468937875751503, 4.6913869280213385, -0.22134763830921605, 1.0610514085512506
0.047294589178356716, 4.711370665868648, -0.19387328628555398, 1.0853874938430401
0.047695390781563124, 4.731240568840267, -0.16488722812017378, 1.1084739626068012
0.04809619238476954, 4.7510771805279814, -0.13449274661208285, 1.1302070476932204
0.04849699398797595, 4.770945894778867, -0.10279171686441388, 1.1504871952144107
0.04889779559118237, 4.790897736849315, -0.06988607906739025, 1.169219566150959
0.049298597194388775, 4.810970131521901, -0.03587906727579334, 1.1863146544401495
0.04969939879759519, 4.831187701131483, -0.0008761846543198995, 1.2016889954605432
0.050100200400801605, 4.85156313276278, 0.035014082782642945, 1.215265936056581
0.05050100200400802, 4.872098147900202, 0.07167981846475353, 1.2269764347061138
0.05090180360721443, 4.892784599696172, 0.10900549259266272, 1.2367598585338353
0.05130260521042084, 4.913605713098887, 0.14687203600265586, 1.2445647430185203
0.051703406813627256, 4.934537471875125, 0.18515715302817234, 1.2503494807827955
0.052104208416833664, 4.955550144820917, 0.22373584590814674, 1.25408290803974
0.05250501002004008, 4.976609932081945, 0.26248111340551983, 1.2557447612046022
0.05290581162324649, 4.997680702492899, 0.30126477741697083, 1.255325981791674
0.05330661322645291, 5.018725785130999, 0.33995838442363135, 1.252828854753682
0.053707414829659315, 5.039709773636293, 0.37843412442827407, 1.2482669734675305
0.05410821643286573, 5.0606003007497975, 0.41656570901976175, 1.2416650330900396
0.054509018036072145, 5.081369743082134, 0.45422915253720725, 1.2330584624067926
0.05490981963927856, 5.101996822081689, 0.4913034056825963, 1.2224929119963879
0.05531062124248497, 5.122468075914035, 0.5276707987532352, 1.2100236230376356
0.05571142284569138, 5.142779187642417, 0.5632172610705916, 1.1957147060441637
0.056112224448897796, 5.162936166736382, 0.59783229319324, 1.17963836203963
0.05651302605210421, 5.182956392563746, 0.6314086781605623, 1.1618740801890373
0.05691382765531062, 5.202869539289214, 0.6638419265039266, 1.1425078458440694
0.05731462925851703, 5.2227184108511455, 0.6950294564993801, 1.1216313916385647
0.05771543086172345, 5.2425597219724915, 0.7248695158226992, 1.099341522062543
0.05811623246492986, 5.2624648662325235, 0.7532598534118851, 1.0757395392614142
0.05851703406813627, 5.282520714958627, 0.7800961512553055, 1.0509307950516749
0.058917835671342685, 5.302830490990746, 0.805270225614746, 1.0250243916678392
0.0593186372745491, 5.323514759010835, 0.8286680067795791, 0.9981330518334924
0.059719438877755514, 5.344712568621462, 0.8501673071077683, 0.9703731775593508
0.06012024048096192, 5.366582776720505, 0.8696353905871542, 0.9418651166692668
0.060521042084168336, 5.389305560225449, 0.8869263658529044, 0.9127336563454663
0.06092184368737475, 5.413084106045701, 0.9018784418839907, 0.8831087636677447
0.061322645290581165, 5.438146428083075, 0.9143111161896229, 0.85312659360769
0.06172344689378757, 5.464747204666725, 0.9240224157581978, 0.8229307842045925
0.06212424849699399, 5.493169445400139, 0.9307863903346044, 0.7926740550166076
0.0625250501002004, 5.52372567240733, 0.934351177297317, 0.762520115745444
0.06292585170340681, 5.55675812365846, 0.9344381312697739, 0.7326458732085563
0.06332665330661323, 5.5926372408690606, 0.9307427540847818, 0.7032438906059996
0.06372745490981964, 5.631757384224803, 0.9229384790197532, 0.6745249953418424
0.06412825651302605, 5.674528330238055, 0.9106847477738874, 0.6467208406265296
0.06452905811623247, 5.721360710033244, 0.8936412167885671, 0.6200860916515274
0.06492985971943888, 5.77264326169617, 0.8714902126867412, 0.5948997239499572
0.06533066132264528, 5.828709862310004, 0.843969464501394, 0.5714646986835568
0.0657314629258517, 5.8897951729687925, 0.8109162727786854, 0.5501050565458586
0.06613226452905811, 5.955979896033193, 0.7723221100132253, 0.5311593375934565
0.06653306613226453, 6.027130491411902, 0.7283927998297192, 0.5149693375786445
0.06693386773547094, 6.102843488771836, 0.6796041327536605, 0.5018637353263788
0.06733466933867735, 6.182409737407026, 0.6267375720762978, 0.4921371953001092
0.06773547094188377, 6.264815985947455, 0.5708786530900106, 0.48602707244256194
0.06813627254509018, 6.348796523485947, 0.5133653394812223, 0.48369137449395455
0.06853707414829659, 6.432934970985005, 0.4556862427625154, 0.48519242486310743
0.06893787575150301, 6.51579940658014, 0.39934551512950467, 0.4904900462368567
0.06933867735470942, 6.59608106801586, 0.3457241659182061, 0.4994459791037478
0.06973947895791584, 6.6727054174226925, 0.29596900979912133, 0.5118384162437518
0.07014028056112225, 6.744895274352461, 0.25092953463146633, 0.5273831796643423
0.07054108216432865, 6.812182545282797, 0.21114615537061932, 0.5457570974830632
0.07094188376753507, 6.874379166027434, 0.17687923283546605, 0.5666196626723115
0.07134268537074148, 6.931524307533934, 0.14816180233400852, 0.5896304911595466
0.07174348697394789, 6.983824032150665, 0.12485982037762758, 0.6144616722567068
0.07214428857715431, 7.031594763483338, 0.10672856122612329, 0.6408052915813748
0.07254509018036072, 7.075216475713257, 0.0934592517064507, 0.6683770436776921
0.07294589178356714, 7.115097291286373, 0.08471424921142409, 0.6969170309588808
0.07334669338677355, 7.151648663660858, 0.08015157962534232, 0.7261887483732424
0.07374749498997996, 7.185269217347168, 0.07944075623567295, 0.7559770398559258
0.07414829659318638, 7.216335094612629, 0.08227202361480365, 0.7860855849272184
0.07454909819639279, 7.2451948881395545, 0.08836094094524805, 0.8163342804222146
0.07494989979959919, 7.272167627051364, 0.09744983192107962, 0.8465567374293859
0.07535070140280561, 7.2975426790551445, 0.1093072342958407, 0.8765980138225649
0.07575150300601202, 7.32158076777472, 0.1237261476318818, 0.9063126386888966
0.07615230460921844, 7.344515565805912, 0.14052161888783923, 0.9355629463760833
0.07655310621242485, 7.366555514839385, 0.1595280179333343, 0.9642177163623054
0.07695390781563126, 7.387885658621048, 0.1805962247573812, 0.9921511042690199
0.07735470941883768, 7.4086693665009005, 0.20359086310938754, 1.0192418447608924
0.07775551102204409, 7.429049886964379, 0.22838765942091427, 1.045372705881737
0.0781563126252505, 7.449151711241028, 0.25487097157052435, 1.0704301747013942
0.07855711422845692, 7.46908175363891, 0.2829315123254029, 1.0943043548515967
0.07895791583166333, 7.488930372351104, 0.3124642820458691, 1.1168890569388468
0.07935871743486973, 7.5087722652156605, 0.3433667208550078, 1.1380820625855124
0.07975951903807615, 7.528667281213716, 0.3755370893698168, 1.1577855418320533
0.08016032064128256, 7.548661191481538, 0.4088730873923543, 1.1759066018596795
0.08056112224448898, 7.568786463872284, 0.4432707203023579, 1.1923579426167072
0.08096192384769539, 7.589063082892129, 0.47862342228655574, 1.2070585922095496
0.0813627254509018, 7.609499452266602, 0.5148214433099384, 1.2199346921884868
0.08176352705410822, 7.630093410575379, 0.5517515025040458, 1.2309203005119413
0.08216432865731463, 7.650833381543275, 0.5892967043421342, 1.2399581784238978
0.08256513026052104, 7.6716996700895965, 0.6273367058226968, 1.2470005271171012
0.08296593186372746, 7.6926659037306235, 0.6657481134159832, 1.2520096411975716
0.08336673346693386, 7.713700607214774, 0.7044050785153141, 1.2549584488120762
0.08376753507014029, 7.734768887298043, 0.7431800505129851, 1.255830912889342
0.0841683366733467, 7.755834195323425, 0.7819446383733558, 1.2546222741379287
0.0845691382765531, 7.7768601286412755, 0.820570525603639, 1.2513391239209384
0.08496993987975952, 7.797812228575157, 0.8589303804922273, 1.24599930342138
0.08537074148296593, 7.818659732929712, 0.89689870375673, 1.2386316340572254
0.08577154308617234, 7.839377244941901, 0.9343525592813254, 1.2292754923036442
0.08617234468937876, 7.859946287677006, 0.9711721400165889, 1.2179802493775713
0.08657314629258517, 7.880356722458396, 1.007241129648892, 1.2048046021899457
0.08697394789579159, 7.900608021079498, 1.0424468303986836, 1.189815826283088
0.087374749498998, 7.9207103932899745, 1.0766800372919751, 1.1730889840342993
0.0877755511022044, 7.940685782440747, 1.109834648549749, 1.154706122289367
0.08817635270541083, 7.960568752429674, 1.1418070096187443, 1.1347554930117927
0.08857715430861723, 7.980407297633194, 1.1724949943446155, 1.1133308288280312
0.08897795591182364, 8.000263613974123, 1.2017968306823328, 1.0905307029125724
0.08937875751503006, 8.020214873469582, 1.2296096802729268, 1.0664579999017132
0.08977955911823647, 8.040354046424454, 1.2558279816149585, 1.041219521837493
0.09018036072144288, 8.060790814758107, 1.2803415661467688, 1.0149257508496716
0.0905811623246493, 8.081652616476452, 1.3030335563771236, 0.9876907886247613
0.09098196392785571, 8.103085854375285, 1.3237780566950597, 0.9596324918210501
0.09138276553106213, 8.125257290454233, 1.342437652623408, 0.9308728224702818
0.09178356713426854, 8.148355629140275, 1.358860745782656, 0.9015384328948262
0.09218436873747494, 8.17259326394662, 1.372878773523899, 0.8717615053669302
0.09258517034068137, 8.198208118630399, 1.3843033994302663, 0.841680866909709
0.09298597194388777, 8.225465448075997, 1.3929238210927815, 0.8114433980471424
0.09338677354709418, 8.254659366163763, 1.398504434714274, 0.7812057489445988
0.0937875751503006, 8.28611372542446, 1.4007832346024638, 0.7511363641200517
0.09418837675350701, 8.320181771672258, 1.3994715240542228, 0.7214177931306704
0.09458917835671343, 8.357243723462718, 1.394255785085377, 0.6922492225344854
0.09498997995991984, 8.397701078261946, 1.3848029006972051, 0.6638490953377248
0.09539078156312625, 8.441966046738365, 1.3707703226566668, 0.6364575776924232
0.09579158316633267, 8.490444140645783, 1.3518231529944789, 0.6103384797959935
0.09619238476953908, 8.543507760943713, 1.3276602859057116, 0.5857800374282429
0.09659318637274548, 8.601458960169117, 1.298051429326832, 0.5630937306767152
0.0969939879759519, 8.664480857104676, 1.262885521644661, 0.5426101132541742
0.09739478957915831, 8.7325799563368, 1.2222282848222135, 0.5246705612237899
0.09779559118236474, 8.805526106241496, 1.176382174809573, 0.5096140915766522
0.09819639278557114, 8.882802353303385, 1.1259364662860376, 0.4977591253431791
0.09859719438877755, 8.963581389987619, 1.0717907698522002, 0.4893813399253145
0.09899799599198397, 9.046745160047154, 1.0151354133019321, 0.4846903534673118
0.09939879759519038, 9.130956422326086, 0.9573798810485995, 0.4838093262499591
0.09979959919839679, 9.214776061301855, 0.9000355179509074, 0.4867618737738636
