t, psi, phi, theta
0.0, 0.0, 0.0, 0.7853981633974483
0.0004008016032064128, 0.03113443966589408, -0.0009885013416939304, 0.755400278162216
0.0008016032064128256, 0.06484847580592981, -0.005445361526213207, 0.725927875714225
0.0012024048096192384, 0.10148770010278055, -0.01365121054035096, 0.6971633122269715
0.0016032064128256513, 0.1414107874433963, -0.025899368189559256, 0.6693063674527353
0.002004008016032064, 0.18497844361155538, -0.04248500777150957, 0.6425761465608983
0.002404809619238477, 0.23253630941779876, -0.06368822667126559, 0.6172123507645774
0.0028056112224448897, 0.28439029696248097, -0.08974950572847284, 0.5934753958246247
0.0032064128256513026, 0.34077332280730493, -0.12083652787240792, 0.5716446940084688
0.0036072144288577155, 0.40180369108907193, -0.15700261427490889, 0.5520142959818911
0.004008016032064128, 0.467437758028433, -0.19813941414685862, 0.5348851035185042
0.004408817635270541, 0.5374229750953463, -0.24392994956802555, 0.5205531306126949
0.004809619238476954, 0.6112612776019203, -0.29381198575823847, 0.5092939150600698
0.0052104208416833666, 0.6881954052664065, -0.34696431660992494, 0.5013441702796305
0.0056112224448897794, 0.7672297737590409, -0.4023275876161754, 0.49688292263500095
0.006012024048096192, 0.8471912130717993, -0.45866497526201516, 0.49601527709725857
0.006412825651302605, 0.9268239630910345, -0.5146571167665025, 0.49876207870610545
0.006813627254509018, 1.0049018435309254, -0.5690142111969466, 0.5050577903430207
0.007214428857715431, 1.0803341846542724, -0.6205818824307643, 0.5147570847309894
0.007615230460921844, 1.152244445758638, -0.6684197349169273, 0.5276486277907977
0.008016032064128256, 1.2200101287402885, -0.711841213238182, 0.5434731047785608
0.008416833667334669, 1.2832644652076344, -0.7504152472910336, 0.5619421626814403
0.008817635270541082, 1.3418691744707012, -0.7839389835501893, 0.5827555285818675
0.009218436873747494, 1.395871005729238, -0.8123943189134242, 0.6056146598483975
0.009619238476953907, 1.4454535803399324, -0.8358997564502058, 0.630232389609968
0.01002004008016032, 1.490892514014211, -0.8546655667874122, 0.656338839167127
0.010420841683366733, 1.5325179973638698, -0.8689564379584076, 0.6836842977081465
0.010821643286573146, 1.5706860810187226, -0.8790628648983481, 0.7120398895049324
0.011222444889779559, 1.605758126968713, -0.8852807457238363, 0.7411967802107576
0.011623246492985972, 1.638087058224578, -0.8878978228482647, 0.7709645230188112
0.012024048096192385, 1.6680088335220764, -0.8871854019971606, 0.8011689812706876
0.012424849699398798, 1.6958377000190006, -0.8833939086860496, 0.8316501212104161
0.01282565130260521, 1.7218640375870224, -0.8767511024360175, 0.8622598585663118
0.013226452905811623, 1.7463538880248026, -0.8674620485975874, 0.8928600645964364
0.013627254509018036, 1.7695495117245759, -0.8557101963722473, 0.9233207854680721
0.014028056112224449, 1.7916705135581454, -0.8416591099878633, 0.9535186965257099
0.014428857715430862, 1.8129152303173097, -0.8254545491468813, 0.9833357941660049
0.014829659318637275, 1.8334621808860805, -0.8072267016931555, 1.0126583180844815
0.015230460921843688, 1.8534714569022945, -0.7870924452815433, 1.0413758921786773
0.0156312625250501, 1.8730859844662517, -0.7651575640706525, 1.0693808711127522
0.01603206412825651, 1.8924326233761457, -0.7415188779422032, 1.0965678799269731
0.016432865731462926, 1.9116230946946395, -0.7162662607534368, 1.122833535110114
0.016833667334669337, 1.9307547439886688, -0.6894845345323937, 1.1480763366028113
0.017234468937875752, 1.94991115897529, -0.6612552311412423, 1.1721967208626203
0.017635270541082163, 1.9691626682919348, -0.6316582137991219, 1.195097265154558
0.018036072144288578, 1.988566753758539, -0.6007731494814426, 1.2166830325064795
0.01843687374749499, 2.0081684123842, -0.5686808207555238, 1.23686204524991
0.018837675350701404, 2.028000506707396, -0.535464263003875, 1.255545872799036
0.019238476953907815, 2.048084142818881, -0.5012097110020247, 1.2726503164285954
0.01963927855711423, 2.0684291144315092, -0.46600733810647343, 1.2880961705003824
0.02004008016032064, 2.0890344484179924, -0.4299517723854543, 1.3018100361389435
0.020440881763527055, 2.109889082170449, -0.39314237724067513, 1.3137251601147781
0.020841683366733466, 2.1309726959131114, -0.355683289561487, 1.3237822690445353
0.02124248496993988, 2.152256713894845, -0.3176832161096959, 1.3319303673561516
0.021643286573146292, 2.17370547762261, -0.27925499826007205, 1.3381274671500867
0.022044088176352707, 2.1952775826453306, -0.24051496575304343, 1.342341219388306
0.022444889779559118, 2.2169273587464855, -0.20158211086388125, 1.34454941890217
0.022845691382765532, 2.238606462764295, -0.16257712433881435, 1.3447403605051524
0.023246492985971944, 2.2602655446423356, -0.12362134257288777, 1.3429130298220195
0.023647294589178358, 2.2818559415942925, -0.08483566092195725, 1.339077119927406
0.02404809619238477, 2.3033313530484705, -0.0463394701563007, 1.3332528730128486
0.024448897795591184, 2.324649450553538, -0.008249671613802984, 1.325470754485232
0.024849699398797595, 2.3457733819232014, 0.029320178217386264, 1.3157709745450001
0.02525050100200401, 2.3666731370249083, 0.06626055063085694, 1.3042028788702484
0.02565130260521042, 2.3873267529499134, 0.10246642177030205, 1.290824235138227
0.026052104208416832, 2.4077213478413357, 0.13783752113219994, 1.2757004455106509
0.026452905811623247, 2.4278539843816365, 0.1722783394466932, 1.2589037168360997
0.026853707414829658, 2.447732374933057, 0.20569789357498575, 1.2405122202943102
0.027254509018036072, 2.467375449864591, 0.23800925409181364, 1.220609270774393
0.027655310621242483, 2.4868138182168122, 0.2691288471409713, 1.199282553787128
0.028056112224448898, 2.5060901553335286, 0.29897554579455027, 1.176623424551052
0.02845691382765531, 2.52525955542436, 0.32746956760692236, 1.152726300453937
0.028857715430861724, 2.5443898883613434, 0.3545311946462989, 1.127688164730406
0.029258517034068135, 2.563562199566951, 0.38007933049706016, 1.1016081962071245
0.02965931863727455, 2.5828711898048304, 0.40402990618003953, 1.0745875375690386
0.03006012024048096, 2.6024258080999063, 0.4262941443862825, 1.046729212933869
0.030460921843687375, 2.6223499857302275, 0.44677668976005386, 1.0181382046476923
0.030861723446893786, 2.6427835317538775, 0.46537361330654775, 0.9889216991110779
0.0312625250501002, 2.6638831998977253, 0.4819703027689691, 0.9591895120035172
0.031663326653306616, 2.6858239212419126, 0.49643925994031624, 0.9290547042758045
0.03206412825651302, 2.7088001745342964, 0.5086378429914609, 0.8986344013580864
0.03246492985971944, 2.7330274325957578, 0.5184060206630067, 0.8680508285975627
0.03286573146292585, 2.7587435741476947, 0.5255642505713014, 0.8374325750723872
0.03326653306613227, 2.7862100789271116, 0.5299116624558889, 0.8069160942017888
0.033667334669338675, 2.81571272190407, 0.5312248270996691, 0.7766474408797023
0.03406813627254509, 2.84756134041538, 0.5292575321379619, 0.7467842280095025
0.034468937875751504, 2.882088058284927, 0.5237421747600567, 0.7174977559750253
0.03486973947895792, 2.9196431110914474, 0.5143936206718781, 0.6889752209996963
0.035270541082164326, 2.960587139021445, 0.5009166561909487, 0.6614218358058938
0.03567134268537074, 3.0052785444637506, 0.483018429701502, 0.635062592259617
0.036072144288577156, 3.054054346551955, 0.4604274438484112, 0.6101432586765698
0.03647294589178357, 3.107203088127309, 0.43292053696301064, 0.5869300425136048
0.03687374749498998, 3.1649290363545264, 0.4003586069083895, 0.5657071916759242
0.03727454909819639, 3.2273084995736427, 0.36273024969981654, 0.5467717164465117
0.03767535070140281, 3.29424179957392, 0.3201997692014634, 0.5304244888301225
0.03807615230460922, 3.3654081321232487, 0.27315232108888743, 0.516957338230629
0.03847695390781563, 3.440234269065872, 0.22222523424904242, 0.5066364989002788
0.038877755511022044, 3.5178898815766915, 0.16831272682399367, 0.4996838319361549
0.03927855711422846, 3.5973198547858987, 0.11253364354733437, 0.49625837750432544
0.039679358717434866, 3.6773160935152305, 0.05615971135993254, 0.49644151627316924
0.04008016032064128, 3.756619686700869, 0.0005134420907260909, 0.5002288451526886
0.040480961923847696, 3.8340337476595203, -0.053144638873834985, 0.5075306261410756
0.04088176352705411, 3.908523262866159, -0.1037157746754757, 0.5181807028064839
0.04128256513026052, 3.979283112973541, -0.15033093744241052, 0.5319518567094927
0.04168336673346693, 4.0457663587091055, -0.19237906335704116, 0.5485744313135751
0.04208416833667335, 4.107676317548727, -0.22949909149163333, 0.5677549835803013
0.04248496993987976, 4.164933288847668, -0.2615466672139023, 0.5891925125632506
0.04288577154308617, 4.217628679165495, -0.28854826513155074, 0.6125909595419031
0.043286573146292584, 4.265977151805833, -0.31065335915238274, 0.6376677160685665
0.043687374749499, 4.3102736348339805, -0.32809147795213445, 0.664158573875745
0.04408817635270541, 4.350858399918752, -0.341137362764965, 0.6918198784641167
0.04448897795591182, 4.388090825133122, -0.35008484574674364, 0.7204287007420864
0.044889779559118236, 4.422330978533368, -0.3552285913578183, 0.7497817392386839
0.04529058116232465, 4.453927544663219, -0.3568522290004126, 0.779693505253265
0.045691382765531065, 4.4832105347390945, -0.3552213240871113, 0.8099941830396113
0.04609218436873747, 4.510487401193709, -0.350579814872556, 0.8405274232933914
0.04649298597194389, 4.536041452407043, -0.343148817547715, 0.8711482278671571
0.0468937875751503, 4.5601317380540705, -0.3331269764595184, 0.9017210139280493
0.047294589178356716, 4.58299381063805, -0.3206917708766771, 0.9321179003373389
0.047695390781563124, 4.604840953447189, -0.30600137338292765, 0.9622172311761633
0.04809619238476954, 4.625865602758974, -0.28919679098641815, 0.9919023355085462
0.04849699398797595, 4.646240790607639, -0.27040411631419053, 1.0210605143995997
0.04889779559118237, 4.66612150331202, -0.2497367821686001, 1.0495822428531196
0.049298597194388775, 4.685645898221247, -0.22729775616913644, 1.0773605736654868
0.04969939879759519, 4.704936353218582, -0.20318163958860264, 1.1042907308459333
0.050100200400801605, 4.724100345253212, -0.17747665065331547, 1.130269881345909
0.05050100200400802, 4.743231168986269, -0.15026648105028328, 1.155197074811093
0.05090180360721443, 4.762408516894019, -0.12163201772907567, 1.1789733415688004
0.05130260521042084, 4.781698949393402, -0.09165292216504918, 1.201501938885559
0.051703406813627256, 4.801156288651508, -0.06040905745449547, 1.2226887345747317
0.052104208416833664, 4.820821973166821, -0.027981751023176786, 1.2424427152897084
0.05250501002004008, 4.840725412099881, 0.005545121771778734, 1.26067660437269
0.05290581162324649, 4.8608843786057765, 0.040084249542857886, 1.2773075710908988
0.05330661322645291, 4.881305479889226, 0.0755442089110336, 1.292258009708848
0.053707414829659315, 4.901984738155922, 0.1118290156473955, 1.3054563634183014
0.05410821643286573, 4.922908310936433, 0.14883791400966134, 1.3168379650366586
0.054509018036072145, 4.944053371432862, 0.1864654092205884, 1.3263458639823713
0.05490981963927856, 4.965389159825785, 0.22460153981173595, 1.3339316077307746
0.05531062124248497, 4.9868782053762235, 0.26313237672885403, 1.3395559460832516
0.05571142284569138, 5.008477707406999, 0.3019407254015838, 1.343189428385898
0.056112224448897796, 5.030141051783533, 0.34090699635741123, 1.3448128674073705
0.05651302605210421, 5.051819429361429, 0.37991020044089013, 1.3444176488537345
0.05691382765531062, 5.073463515011902, 0.41882901727876026, 1.3420058722048345
0.05731462925851703, 5.095025161087705, 0.4575428811266548, 1.3375903162823404
0.05771543086172345, 5.116459058048317, 0.49593302714285736, 1.33119423116484
0.05811623246492986, 5.137724317554991, 0.5338834436019276, 1.3228509661526724
0.05851703406813627, 5.15878593939168, 0.5712816812851252, 1.312603450870732
0.058917835671342685, 5.179616132431089, 0.6080194796368427, 1.3005035527827449
0.0593186372745491, 5.200195470654015, 0.6439931793509445, 1.2866113390160467
0.059719438877755514, 5.220513876926167, 0.6791039018218742, 1.270994273275577
0.06012024048096192, 5.240571438836006, 0.7132574863523471, 1.2537263797537612
0.060521042084168336, 5.260379071531381, 0.7463641852831956, 1.234887405475946
0.06092184368737475, 5.279959051511785, 0.7783381246620119, 1.2145620107423984
0.061322645290581165, 5.299345452341528, 0.8090965433307796, 1.1928390146009282
0.06172344689378757, 5.318584518097139, 0.8385588263016412, 1.1698107190038909
0.06212424849699399, 5.337735013098408, 0.8666453491671509, 1.145572331853408
0.0625250501002004, 5.356868587271156, 0.8932761494254067, 1.1202215058584364
0.06292585170340681, 5.376070195564175, 0.9183694385213655, 1.093858007290486
0.06332665330661323, 5.3954386073517275, 0.9418399657748897, 1.0665835265282932
0.06372745490981964, 5.41508703770414, 0.963597242973134, 1.038501640842669
0.06412825651302605, 5.435143926556689, 0.9835436371996822, 1.009717939228
0.06452905811623247, 5.455753883535261, 1.0015723406425614, 0.9803403191910971
0.06492985971943888, 5.477078804378101, 1.0175652312206391, 0.9504794661232008
0.06533066132264528, 5.499299147704822, 1.0313906489980311, 0.920249526950945
0.0657314629258517, 5.522615335581461, 1.042901133424479, 0.8897689907643368
0.06613226452905811, 5.547249203967538, 1.0519311994532516, 0.8591617893835752
0.06653306613226453, 5.573445374263831, 1.058295281976933, 0.828558629302812
0.06693386773547094, 5.601472337776027, 1.0617860547667823, 0.7980985615360078
0.06733466933867735, 5.6316229321922675, 1.0621734408585248, 0.7679307852135305
0.06773547094188377, 5.664213734021716, 1.0592047851414128, 0.738216660802376
0.06813627254509018, 5.699582686395609, 1.0526068636246504, 0.7091318748421059
0.06853707414829659, 5.738084028459014, 1.0420906565889347, 0.6808686439665447
0.06893787575150301, 5.780079310928154, 1.027360094359019, 0.653637764943092
0.06933867735470942, 5.825923029877816, 1.008126237050594, 0.6276702039997129
0.06973947895791584, 5.875941306061884, 0.9841284546750181, 0.6032177728622785
0.07014028056112225, 5.930402293005927, 0.9551639184603844, 0.5805522740102719
0.07054108216432865, 5.989477906748142, 0.9211258050697152, 0.5599623513803446
0.07094188376753507, 6.053198367605933, 0.8820487184380466, 0.5417472278555033
0.07134268537074148, 6.121404088427419, 0.8381567904153185, 0.5262066566253935
0.07174348697394789, 6.193703286508868, 0.7899060792063083, 0.5136268790278892
0.07214428857715431, 6.269447104714447, 0.7380094766457375, 0.5042632271030794
0.07254509018036072, 6.3477348485265255, 0.6834315144514492, 0.49832113369034897
0.07294589178356714, 6.427457980886997, 0.6273444244251084, 0.4959383818091158
0.07334669338677355, 6.507382220423958, 0.5710461036335202, 0.4971719308182938
0.07374749498997996, 6.586255171215446, 0.5158525526965656, 0.5019921680312134
0.07414829659318638, 6.6629177782009155, 0.46298648907483825, 0.5102859194576848
0.07454909819639279, 6.736396465207205, 0.41348527434930077, 0.5218675145286821
0.07494989979959919, 6.805959890383157, 0.3681442168731123, 0.5364954409219688
0.07535070140280561, 6.87113593115147, 0.3274996342057681, 0.5538912875792947
0.07575150300601202, 6.931695102308637, 0.29184546849575416, 0.5737578968240215
0.07615230460921844, 6.9876123491241575, 0.2612715098355913, 0.5957945940831733
0.07655310621242485, 7.039019660894025, 0.23571077882720642, 0.6197085181610558
0.07695390781563126, 7.086159101486605, 0.21498646813772748, 0.6452220308904127
0.07735470941883768, 7.129341966568059, 0.19885272917671923, 0.6720767704979512
0.07775551102204409, 7.168916405107124, 0.18702696156830254, 0.7000351486434203
0.0781563126252505, 7.205243581041258, 0.17921352426062873, 0.7288800868583051
0.07855711422845692, 7.238681261361644, 0.1751199762535637, 0.7584136611621374
0.07895791583166333, 7.2695732870104, 0.1744673843549148, 0.7884551590616863
0.07935871743486973, 7.298243401567917, 0.17699621647643482, 0.8188388988553021
0.07975951903807615, 7.324992134492761, 0.1824691170298506, 0.8494120369504812
0.08016032064128256, 7.35009571679117, 0.19067157991240147, 0.8800324979869989
0.08056112224448898, 7.3738062727615, 0.20141126913394347, 0.910567100598696
0.08096192384769539, 7.396352752178745, 0.2145165171102416, 0.9408899119740299
0.0813627254509018, 7.41794223764746, 0.22983436144757674, 0.9708808405143945
0.08176352705410822, 7.438761387126986, 0.24722835752141137, 1.0004244626988892
0.08216432865731463, 7.458977860603217, 0.26657631760159956, 1.0294090738181558
0.08256513026052104, 7.478741641731423, 0.28776806863776583, 1.0577259498429328
0.08296593186372746, 7.498186207539627, 0.31070328262086194, 1.085268807524301
0.08336673346693386, 7.517429527930172, 0.33528940974369265, 1.111933450677349
0.08376753507014029, 7.536574896139273, 0.3614397309688538, 1.1376175917040974
0.0841683366733467, 7.555711604606215, 0.38907153985560233, 1.1622208382741008
0.0845691382765531, 7.5749154899535345, 0.41810446126754486, 1.1856448353997702
0.08496993987975952, 7.594249377314013, 0.4484589151752951, 1.2077935527461767
0.08537074148296593, 7.613763458821517, 0.4800547358954614, 1.2285737058287354
0.08577154308617234, 7.633495644060623, 0.5128099597546485, 1.247895297787913
0.08617234468937876, 7.6534719217059735, 0.5466397964995313, 1.2656722657795576
0.08657314629258517, 7.673706771355017, 0.5814558010904015, 1.28182321285423
0.08697394789579159, 7.694203662461098, 0.6171652622418444, 1.2962722027690072
0.087374749498998, 7.714955673111098, 0.6536708217859771, 1.3089495918008638
0.0877755511022044, 7.735946255065606, 0.690870334397522, 1.3197928686845048
0.08817635270541083, 7.757150163070011, 0.7286569704392735, 1.3287474716751089
0.08857715430861723, 7.778534556266228, 0.7669195559362634, 1.3357675508163016
0.08897795591182364, 7.800060268157588, 0.8055431335219214, 1.3408166440899654
0.08937875751503006, 7.821683229809614, 0.8444097174234164, 1.3438682384388236
0.08977955911823647, 7.8433560197792325, 0.883399205143606, 1.34490619073395
0.09018036072144288, 7.865029504682888, 0.9223903994898663, 1.3439249894791583
0.0905811623246493, 7.886654527286496, 0.9612620879541303, 1.340929845096335
0.09098196392785571, 7.908183595265114, 0.9998941228968887, 1.3359366045598322
0.09138276553106213, 7.929572523721718, 1.0381684459370415, 1.3289714943816004
0.09178356713426854, 7.950781988197732, 1.0759700034074025, 1.3200707038898165
0.09218436873747494, 7.971778951848975, 1.1131875063027916, 1.3092798278270694
0.09258517034068137, 7.992537939983356, 1.1497139971009214, 1.2966531930564766
0.09298597194388777, 8.013042146315625, 1.1854471962207023, 1.282253098293993
0.09338677354709418, 8.033284367061917, 1.2202896116623396, 1.2661489981493246
0.0937875751503006, 8.053267770396937, 1.254148405567792, 1.2484166634003186
0.09418837675350701, 8.073006519018099, 1.2869350202390528, 1.2291373485443495
0.09458917835671343, 8.092526272025678, 1.3185645729928956, 1.2083969955766027
0.09498997995991984, 8.111864598714982, 1.3489550338312513, 1.1862855000166914
0.09539078156312625, 8.131071341099426, 1.3780262022556338, 1.1628960618374116
0.09579158316633267, 8.150208964135805, 1.4056984998794075, 1.1383246405164378
0.09619238476953908, 8.169352932899882, 1.4318915942128403, 1.1126695302553289
0.09659318637274548, 8.188592154568935, 1.4565228666830812, 1.086031068742463
0.0969939879759519, 8.208029520133094, 1.4795057353020267, 1.0585114908513604
0.09739478957915831, 8.227782576224307, 1.500747840240337, 1.030214937457067
0.09779559118236474, 8.247984350980452, 1.5201490999144183, 1.0012476291343977
0.09819639278557114, 8.268784348703763, 1.5375996473225422, 0.9717182148021587
0.09859719438877755, 8.290349714919062, 1.5529776629675447, 0.9417383062281734
0.09899799599198397, 8.312866554224403, 1.5661471340859394, 0.9114232104129036
0.09939879759519038, 8.336541354991171, 1.5769555932590626, 0.880892872740219
0.09979959919839679, 8.361602433160892, 1.5852319271992519, 0.8502730436580852
